# Postprocessed results of turbulent pipe flow 
# Mean velocity and pressure 
# ------------------------------------------------------------------
# uTau = 0.0241079 
# nu = 1.20482e-05 
# ------------------------------------------------------------------
# r	 1-r	 y+	 Ur	 Ut	 Uz	 dUz/dy	 P	 
# ------------------------------------------------------------------
1	0	0	-2.03323918813212e-38	4.36505329271164e-39	0	-1.00002392598074	-1.88190031834716e-17
0.999955187634167	4.48123658329802e-05	0.0897072246894398	6.73808399019589e-24	1.07039740066563e-05	0.0897072246894398	-0.999976074019263	-2.08376064433733e-08
0.999902564001706	9.74359982940376e-05	0.195051362036554	-1.46967609707927e-23	2.32742152651507e-05	0.195045881769954	-0.999914472147666	-3.28796807070636e-07
0.999842130928339	0.000157869071661043	0.316028757236195	9.17701622182328e-24	3.77101312416754e-05	0.316008275113812	-0.999824760914757	-1.93583850276270e-06
0.999773890361304	0.000226109638695959	0.452635512227709	2.04575316731419e-22	5.40105583477885e-05	0.452583188201595	-0.999684340394585	-7.32921046634163e-06
0.999697844369260	0.000302155630739986	0.604867485885396	-3.26724515321913e-22	7.21733129422623e-05	0.604753101193769	-0.999457496149881	-2.14537809132209e-05
0.999613995142192	0.000386004857808042	0.772720294207650	2.82998776338503e-22	9.21945324992950e-05	0.772489894452526	-0.999091413134353	-5.28956466423061e-05
0.999522344991310	0.000477655008690014	0.956189310519645	-3.64197853262222e-22	0.000114067756176403	0.955748613149502	-0.998511936508542	-0.000115179280963885
0.999422896348953	0.000577103651047017	1.15526966566603	-1.34714100654680e-21	0.000137782701677617	1.15445888110744	-0.997619440598804	-0.000228060664613353
0.999315651768484	0.000684348231515974	1.36995624822028	-7.75770515837875e-23	0.000163323718609922	1.36851363633315	-0.996285334814975	-0.000418684036898117
0.999200613924187	0.000799386075812980	1.60024370469162	3.37019040551063e-21	0.000190667943034980	1.59775503914348	-0.994349882976090	-0.000722472597054869
0.999077785611161	0.000922214388838993	1.84612643973660	-3.04253333886364e-21	0.000219783245593962	1.84195768977203	-0.991622092084983	-0.00118364381260933
0.998947169745211	0.00105283025478897	2.10759861637757	6.86902681723179e-23	0.000250626151729676	2.10080967838027	-0.987882386131085	-0.00185527485511311
0.998808769362744	0.00119123063725601	2.38465415621113	2.78796585877751e-21	0.000283140003147089	2.37389244048263	-0.982888582806348	-0.00279888771975444
0.998662587620649	0.00133741237935103	2.67728673964774	1.02260032409162e-20	0.000317253699508986	2.66066083935983	-0.976385333167881	-0.00408357026112975
0.998508627796193	0.00149137220380702	2.98548980612041	-2.66125907852312e-21	0.000352881374614597	2.96042525774791	-0.968116708902784	-0.00578469198432981
0.998346893286899	0.00165310671310104	3.30925655432894	-8.16263477005444e-21	0.000389923292416828	3.27233766657618	-0.957841112786226	-0.00798230643114898
0.998177387610434	0.00182261238956605	3.64857994246372	6.79757996340274e-21	0.000428268089098533	3.59538358195865	-0.945347249860384	-0.0107593517800904
0.998000114404488	0.00199988559551201	4.00345268844822	5.29556131358712e-21	0.000467796266839148	3.92838149830639	-0.930469625925882	-0.0141997664425769
0.997815077426654	0.00218492257334602	4.37386727017945	-1.00290035264099e-20	0.000508384619098410	4.26999082037691	-0.913101996374569	-0.0183866278031136
0.997622280554307	0.00237771944569298	4.75981592576956	-1.52339180465339e-20	0.000549911097552328	4.61872858247278	-0.893207381158952	-0.0234004024810489
0.997421727784479	0.00257827221552098	5.16129065379673	-3.74190476268624e-21	0.000592259556574113	4.97299444125142	-0.870823649645634	-0.0293173695443683
0.997213423233732	0.00278657676626803	5.57828321355902	-2.92564769634513e-20	0.000635323833383089	5.33110267075156	-0.846064186337068	-0.0362082486117307
0.996997371138035	0.00300262886196501	6.01078512532036	-6.83210139075765e-21	0.000679010711391764	5.69131927247382	-0.819113686352043	-0.0441370373796357
0.996773575852631	0.00322642414736896	6.45878767057750	-1.32767422301075e-20	0.000723241438510527	6.05190190947042	-0.790219617310176	-0.0531600417800632
0.996542041851904	0.00345795814809602	6.92228189232603	3.66792569645121e-21	0.000767951619916317	6.41114021521166	-0.759680262413081	-0.0633250693652761
0.996302773729253	0.00369722627074698	7.40125859531174	2.39925522782757e-21	0.000813089490442495	6.76739411383094	-0.727830495156900	-0.0746707535292483
0.996055776196952	0.00394422380304804	7.89570834631242	6.64580748566316e-21	0.000858612814104653	7.11912808617351	-0.695026521518027	-0.0872259818511789
0.995801054086013	0.00419894591398695	8.40562147441039	5.24662871284427e-20	0.000904484943845250	7.46493977208775	-0.661630773172298	-0.101009413662891
0.995538612346054	0.00446138765394599	8.93098807125867	5.61181861640978e-20	0.000950670838197000	7.80358184834673	-0.627997972279297	-0.116029086438065
0.995268456045154	0.00473154395484599	9.47179799136933	2.40571717746058e-20	0.000997133954068013	8.13397669592248	-0.594463150180251	-0.132282124211012
0.994990590369711	0.00500940963028895	10.0280408523990	-8.47548801012402e-20	0.00104383476439448	8.45522390946452	-0.561332127546735	-0.149754571104262
0.994705020624303	0.00529497937569701	10.5997060354270	-3.89594020493025e-20	0.00109073111286432	8.76660115878746	-0.528874688183022	-0.168421377524543
0.994411752231539	0.00558824776846101	11.1867826852527	-8.77917400021819e-20	0.00113777987313472	9.06755925697705	-0.497320432089047	-0.188246565311017
0.994110790731916	0.00588920926808401	11.7892597106831	2.31876292664497e-20	0.00118493877045820	9.35771250998602	-0.466857095026575	-0.209183591528530
0.993802141783668	0.00619785821633201	12.4071257848341	6.38789363880279e-20	0.00123216706597154	9.63682552121811	-0.437630981227889	-0.231175919780629
0.993485811162616	0.00651418883738397	13.0403693454312	-6.38404724021172e-20	0.00127942433105569	9.90479761600149	-0.409749075099365	-0.254157794823680
0.993161804762017	0.00683819523798301	13.6889785951121	-6.71170911485687e-21	0.00132666767228190	10.1616459584101	-0.383282372761795	-0.278055202789976
0.992830128592411	0.00716987140758896	14.3529415017319	2.74555931431089e-20	0.00137384874461543	10.4074882842342	-0.358269994581299	-0.302786987243134
0.992490788781466	0.00750921121853398	15.0322457986747	-1.07561203054028e-19	0.00142091188941714	10.6425259954178	-0.334723690975680	-0.328266082391063
0.992143791573819	0.00785620842618096	15.7268789851709	-1.73821316596505e-19	0.00146779378833841	10.8670281746452	-0.312632422593044	-0.354400819770914
0.991789143330920	0.00821085666907995	16.4368283266100	1.03468634953121e-19	0.00151442385912960	11.0813169014178	-0.291966773310775	-0.381096264267808
0.991426850530871	0.00857314946912902	17.1620808548630	-5.28849035084383e-20	0.00156072418736966	11.2857540969066	-0.272683031709807	-0.408255538655659
0.991056919768265	0.00894308023173496	17.9026233686038	-7.32897916075303e-20	0.00160660867040839	11.4807300013131	-0.254726843210180	-0.435781101315235
0.990679357754020	0.00932064224597995	18.6584424336429	2.66570807956013e-20	0.00165198194709403	11.6666532925306	-0.238036385250397	-0.463575948817927
0.990294171315216	0.00970582868478398	19.4295243832526	2.26993930719557e-20	0.00169673800928003	11.8439427839683	-0.222545054607665	-0.491544720923917
0.989901367394930	0.0100986326050700	20.2158553184978	2.34866226502627e-19	0.00174075717491352	12.0130205900857	-0.208183682729787	-0.519594689831880
0.989500953052064	0.0104990469479360	21.0174211085797	4.96780327897710e-20	0.00178390128072606	12.1743066172434	-0.194882314234224	-0.547636621649816
0.989092935461176	0.0109070645388240	21.8342073911752	-8.46597458427542e-20	0.00182601019240349	12.3282142234440	-0.182571598230238	-0.575585504708349
0.988677321912312	0.0113226780876881	22.6661995727727	1.76011199527692e-20	0.00186690304320963	12.4751468923192	-0.171183846203844	-0.603361143316826
0.988254119810828	0.0117458801891720	23.5133828290274	2.58977504284081e-19	0.00190638470211566	12.6154957716706	-0.160653801933682	-0.630888618643593
0.987823336677216	0.0121766633227840	24.3757421051117	1.03911227217669e-19	0.00194425490571482	12.7496379277151	-0.150919165868885	-0.658098620169560
0.987384980146932	0.0126150198530680	25.2532621160577	-2.93056595801025e-19	0.00198031520794279	12.8779351774179	-0.141920925016684	-0.684927652399210
0.986939057970213	0.0130609420297870	26.1459273471242	1.86756498631725e-19	0.00201437069914149	13.0007333879862	-0.133603540009284	-0.711318130559883
0.986485578011899	0.0135144219881010	27.0537220541534	-6.58923978371704e-20	0.00204623111103803	13.1183621571731	-0.125915026522222	-0.737218383976089
0.986024548251253	0.0139754517487470	27.9766302639304	1.57898252135737e-19	0.00207571640260020	13.2311348007144	-0.118806947953868	-0.762582577654781
0.985555976781777	0.0144440232182230	28.9146357745524	-2.50959558207694e-19	0.00210266071765215	13.3393485691747	-0.112234324338242	-0.787370563795152
0.985079871811029	0.0149201281889710	29.8677221557945	-3.01666374407292e-19	0.00212690706897564	13.4432850110308	-0.106155477860960	-0.811547682036084
0.984596241660436	0.0154037583395640	30.8358727494839	8.48987354085461e-20	0.00214829715732830	13.5432104261779	-0.100531852819181	-0.835084526170631
0.984105094765106	0.0158949052348940	31.8190706698772	-3.53048105346382e-21	0.00216667029449641	13.6393763871869	-0.0953278269510546	-0.857956690269112
0.983606439673643	0.0163935603263570	32.8172988040294	-3.92180851758811e-19	0.00218188116763462	13.7320203000497	-0.0905105057352069	-0.880144502461053
0.983100285047950	0.0168997149520500	33.8305398121895	-2.23249077051283e-19	0.00219382218147624	13.8213659630071	-0.0860495112733559	-0.901632743148692
0.982586639663045	0.0174133603369550	34.8587761281675	-5.85135693506770e-19	0.00220242508258271	13.9076241161217	-0.0819167943767602	-0.922410336832424
0.982065512406857	0.0179344875931430	35.9019899597444	-1.75993762520746e-19	0.00220764459582773	13.9909929982395	-0.0780864738648853	-0.942470016980792
0.981536912280045	0.0184630877199550	36.9601632890331	3.51817257797186e-20	0.00220945098190653	14.0716589168618	-0.0745346904470404	-0.961807985858819
0.981000848395788	0.0189991516042120	38.0332778728997	-2.88289112960671e-19	0.00220783921674224	14.1497968265000	-0.0712394609240052	-0.980423596275213
0.980457329979594	0.0195426700204060	39.1213152433454	-1.24734090630324e-19	0.00220284036572887	14.2255708932551	-0.0681805181053048	-0.998319058980409
0.979906366369101	0.0200936336308990	40.2242567079049	-1.84489687728717e-19	0.00219452196201835	14.2991350094203	-0.0653391471337881	-1.01549917752426
0.979347967013871	0.0206520329861291	41.3420833500590	1.15456577228646e-19	0.00218297452061667	14.3706332573852	-0.0626980481478411	-1.03197111123643
0.978782141475193	0.0212178585248070	42.4747760296283	-5.31244059273762e-19	0.00216829589516906	14.4402003532237	-0.0602412322630969	-1.04774415496179
0.978208899425876	0.0217911005741240	43.6223153831894	8.86087150629267e-20	0.00215058509474759	14.5079620901750	-0.0579539390148865	-1.06282952315637
0.977628250650044	0.0223717493499560	44.7846818244826	-5.11682814598978e-19	0.00212994066019905	14.5740357920363	-0.0558225635376733	-1.07724013837872
0.977040205042929	0.0229597949570710	45.9618555448283	8.47454948886779e-19	0.00210646005013972	14.6385307737466	-0.0538345912544232	-1.09099043260585
0.976444772610664	0.0235552273893360	47.1538165135408	-3.27399293834745e-19	0.00208022331818099	14.7015488162721	-0.0519785430594151	-1.10409617126699
0.975841963470071	0.0241580365299290	48.3605444783523	-1.95368328650574e-19	0.00205124380746035	14.7631846616763	-0.0502438977029414	-1.11657428498074
0.975231787848450	0.0247682121515500	49.5820189658361	-1.03424016729465e-19	0.00201941879809704	14.8235264559230	-0.0486209490011304	-1.12844265916872
0.974614256083370	0.0253857439166300	50.8182192818239	-5.13072646623221e-19	0.00198455418044436	14.8826560371536	-0.0471006509799946	-1.13971990821111
0.973989378622450	0.0260106213775499	52.0691245118455	-2.49767687497606e-19	0.00194647531905971	14.9406491178513	-0.0456745689529995	-1.15042520949883
0.973357166023145	0.0266428339768550	53.3347135215561	-2.36248878582834e-19	0.00190510726313659	14.9975755529318	-0.0443349354331786	-1.16057815876572
0.972717628952531	0.0272823710474690	54.6149649571672	-5.09968859386796e-19	0.00186046424563171	15.0534997579909	-0.0430746917960393	-1.17019860613059
0.972070778187083	0.0279292218129170	55.9098572458906	-2.42433887517285e-19	0.00181263870254723	15.1084811844617	-0.0418874670828742	-1.17930651823964
0.971416624612461	0.0285833753875390	57.2193685963675	-1.93230756740227e-19	0.00176181830978666	15.1625747886063	-0.0407675281690236	-1.18792190318922
0.970755179223280	0.0292448207767200	58.5434769991287	1.71114477694678e-19	0.00170830392113156	15.2158314784722	-0.0397097076353362	-1.19606477777067
0.970086453122898	0.0299135468771020	59.8821602270183	4.77037533209427e-19	0.00165253144658238	15.2682984858031	-0.0387092947401453	-1.20375509256471
0.969410457523182	0.0305895424768180	61.2353958356628	-4.46110437124586e-19	0.00159506138405179	15.3200196035832	-0.0377619425970224	-1.21101262882488
0.968727203744291	0.0312727962557090	62.6031611639057	2.66109240125083e-19	0.00153651051158317	15.3710353748614	-0.0368636426561368	-1.21785691944429
0.968036703214443	0.0319632967855570	63.9854333342730	-1.03195079085324e-18	0.00147746478906020	15.4213833157438	-0.0360107230793562	-1.22430719184706
0.967338967469691	0.0326610325303091	65.3821892534230	-4.10456886451032e-20	0.00141843139882545	15.4710981502538	-0.0351998254599206	-1.23038231453540
0.966634008153692	0.0333659918463080	66.7934056126067	-6.49728521473303e-19	0.00135987067146098	15.5202120179189	-0.0344278571857461	-1.23610072088224
0.965921837017476	0.0340781629825240	68.2190588881328	-2.38306445402487e-19	0.00130228143113956	15.5687546199743	-0.0336919484705795	-1.24148033656884
0.965202465919214	0.0347975340807860	69.6591253418300	-7.79443441852499e-19	0.00124621601096109	15.6167533439991	-0.0329894575791817	-1.24653854247786
0.964475906823987	0.0355240931760130	71.1135810215102	-1.16363301589848e-19	0.00119216133193904	15.6642334595668	-0.0323180196747566	-1.25129219156460
0.963742171803546	0.0362578281964540	72.5824017614490	-2.73315852525326e-19	0.00114040601713880	15.7112184199815	-0.0316755514885268	-1.25575763272552
0.963001273036081	0.0369987269639190	74.0655631828486	2.73514839545771e-19	0.00109103311108239	15.7577301109855	-0.0310601658819074	-1.25995069176851
0.962253222805982	0.0377467771940180	75.5630406943145	3.44992208137186e-19	0.00104402916177689	15.8037889382056	-0.0304700919900548	-1.26388663576035
0.961498033503598	0.0385019664964020	77.0748094923406	4.38542776109928e-19	0.000999402853932338	15.8494138656768	-0.0299036555973520	-1.26758013529447
0.960735717625002	0.0392642823749980	78.6008445617769	-4.62827398254554e-19	0.000957259653743345	15.8946224616510	-0.0293592679315369	-1.27104522106040
0.959966287771743	0.0400337122282570	80.1411206763280	4.62921763233319e-20	0.000917815296858033	15.9394309169871	-0.0288354101187071	-1.27429526310885
0.959189756650610	0.0408102433493900	81.6956123990246	1.15350929480678e-19	0.000881326458334697	15.9838540559499	-0.0283306537014235	-1.27734302022090
0.958406137073383	0.0415938629266170	83.2642940827222	-7.31861952721437e-19	0.000848000862777319	16.0279054301470	-0.0278437017107252	-1.28020073040979
0.957615441956593	0.0423845580434070	84.8471398705810	-1.29123805843719e-18	0.000817936423229015	16.0715974720166	-0.0273733912598444	-1.28288013897247
0.956817684321269	0.0431823156787310	86.4441236965734	3.25296595938288e-19	0.000791106516783663	16.1149416154265	-0.0269186624746127	-1.28539246973259
0.956012877292696	0.0439871227073040	88.0552192859677	-2.21470502342765e-20	0.000767469007421855	16.1579483689207	-0.0264785374031358	-1.28774839298275
0.955201034100165	0.0447989658998350	89.6804001558287	2.75529326701204e-19	0.000747101053105727	16.2006273835174	-0.0260521383163207	-1.28995797390158
0.954382168076720	0.0456178319232800	91.3196396155240	1.34653901311397e-18	0.000730234819821950	16.2429875984384	-0.0256387444051972	-1.29203061778713
0.953556292658908	0.0464437073410920	92.9729107672254	-2.91698560671802e-19	0.000717192407026986	16.2850375104672	-0.0252377911565208	-1.29397502392816
0.952723421386529	0.0472765786134710	94.6401865064075	-4.99051241625882e-19	0.000708287920040601	16.3267853380331	-0.0248487612357044	-1.29579918459324
0.951883567902379	0.0481164320976210	96.3214395223641	1.41234012309125e-18	0.000703779216481454	16.3682389463363	-0.0244710918702459	-1.29751040244561
0.951036745951995	0.0489632540480049	98.0166422987178	4.62601742870542e-19	0.000703817760086873	16.4094057071086	-0.0241041796543831	-1.29911530044515
0.950182969383401	0.0498170306165990	99.7257671139285	8.43101851387973e-19	0.000708370171598640	16.4502924351843	-0.0237474441572880	-1.30061996697085
0.949322252146848	0.0506777478531520	101.448786041814	2.24941492431356e-19	0.000717277426970592	16.4909054616272	-0.0234003624873603	-1.30203017881417
0.948454608294556	0.0515453917054440	103.185670952065	-2.96293724855276e-19	0.000730420540343357	16.5312506920975	-0.0230624197880658	-1.30335148449361
0.947580051980455	0.0524199480195450	104.936393510767	3.75892635858464e-19	0.000747771891311564	16.5713335145144	-0.0227330917452648	-1.30458917817713
0.946698597459924	0.0533014025400760	106.700925180921	3.12266023218010e-19	0.000769285852964218	16.6111587992702	-0.0224119367967597	-1.30574828478271
0.945810259089527	0.0541897409104730	108.479237222969	-9.09842508327760e-19	0.000794788464990821	16.6507311335812	-0.0220986584266563	-1.30683354252799
0.944915051326751	0.0550849486732490	110.271300695324	1.84906124482844e-18	0.000823966209402062	16.6900550538573	-0.0217930335465331	-1.30784938327948
0.944012988729740	0.0559870112702600	112.077086454897	1.34653901311397e-18	0.000856413024272048	16.7291350407416	-0.0214948260224260	-1.30879996757540
0.943104085957032	0.0568959140429680	113.896565157630	9.30200726790614e-19	0.000891727113883737	16.7679754496015	-0.0212037625781015	-1.30968924547934
0.942188357767289	0.0578116422327110	115.729707259029	3.24279095297663e-19	0.000929673040980141	16.8065804161886	-0.0209195160033271	-1.31052099639477
0.941265819019031	0.0587341809809691	117.576483014702	-3.78305097054788e-19	0.000970247222644170	16.8449537202588	-0.0206417336163447	-1.31129887831799
0.940336484670365	0.0596635153296350	119.436862480899	3.34708476864081e-19	0.00101357864918675	16.8830987908926	-0.0203701345370944	-1.31202653854524
0.939400369778716	0.0605996302212840	121.310815515052	-4.04210335139121e-19	0.00105986106842922	16.9210189305719	-0.0201045567416085	-1.31270762050195
0.938457489500555	0.0615425104994450	123.198311776318	1.05165255728988e-18	0.00110937373863445	16.9587175055152	-0.0198448952514574	-1.31334558705452
0.937507859091128	0.0624921409088720	125.099320726122	4.04710879809104e-19	0.00116252195161364	16.9961979507471	-0.0195910284436589	-1.31394357056473
0.936551493904178	0.0634485060958220	127.013811628715	-3.99590554004662e-19	0.00121967860202870	17.0334636878053	-0.0193427951324959	-1.31450426739182
0.935588409391676	0.0644115906083240	128.941753551708	9.84497515008548e-19	0.00128093214821694	17.0705180401731	-0.0191000245590127	-1.31502987179052
0.934618621103541	0.0653813788964590	130.883115366640	3.96062124363781e-19	0.00134610374716985	17.1073642625626	-0.0188625934997094	-1.31552211965105
0.933642144687362	0.0663578553126381	132.837865749528	1.88425527908365e-18	0.00141493124700435	17.1440056775559	-0.0186304308710696	-1.31598245365510
0.932658995888126	0.0673410041118741	134.805973181413	-1.14907824362985e-18	0.00148720324577770	17.1804457280538	-0.0184034400467819	-1.31641220313246
